-0.494389
-0.494871
-0.487306
-0.47176
-0.448187
-0.417597
-0.384378
-0.355903
-0.339322
-0.339327
-0.356208
-0.385107
-0.417016
-0.441384
-0.449412
-0.43807
-0.412448
-0.375547
-0.331125
-0.283205
-0.235295
-0.189696
-0.148019
-0.111103
-0.0789918
-0.0511618
-0.0266068
-0.00391896
0.018573
0.042574
0.0695248
0.10031
0.135018
0.172947
0.212975
0.253837
0.294417
0.334066
0.37284
0.411646
0.452227
0.49702
0.548867
0.610627
0.684702
0.772706
0.87901
1.00761
1.15115
1.29253
1.4139
1.50122
1.54684
1.54982
1.51454
1.44919
1.36465
1.27407
1.18924
1.11805
1.06438
1.02773
1.005
0.994155
0.992105
0.995012
0.998705
0.9986
0.990234
0.969432
0.93233
0.855442
0.683468
0.431373
0.128941
-0.194424
0
0.996341
2.97804
5.71015
8.5472
10.6569
11.3998
10.643
8.80732
6.61948
4.73482
3.46932
2.77434
2.40834
2.14883
1.98924
1.84624
1.72639
1.63702
1.58167
1.55985
1.56738
1.59721
1.64072
1.68933
1.73637
1.77901
1.81749
1.85337
1.88843
1.92445
1.96297
2.00494
2.05063
2.09987
2.15218
2.20734
2.26583
2.32894
2.39863
2.47712
2.56631
2.66734
2.78031
2.90428
3.03815
3.18096
3.33219
3.49204
3.66132
3.8412
4.03285
4.23702
4.45382
4.68255
4.92168
5.169
5.42174
5.67677
5.9306
6.17801
6.41039
6.61496
6.77932
6.89717
6.96192
6.96701
6.90747
6.78134
6.59
6.33758
6.03027
5.67987
5.30593
4.92326
4.54033
4.1629
3.79676
3.44744
3.1199
2.8182
2.54522
2.30255
2.09053
1.90837
1.75446
1.62662
1.52231
1.439
1.37443
1.32619
1.29082
1.26352
1.23936
1.2143
1.18582
1.15343
1.11871
1.08475
1.05528
1.03347
1.0205
1.01628
1.01863
1.02341
1.02609
1.02304
1.01253
0.995047
0.973009
0.949782
0.928476
0.910612
0.896571
0.883656
0.867303
0.843321
0.810061
0.769796
0.728666
0.695025
0.676735
0.678406
0.69958
0.735053
0.775904
0.812231
0.83569
0.841254
0.827865
0.798043
0.756844
0.710539
0.665258
0.625369
0.593599
0.571021
0.557278
0.551444
0.552635
0.559719
0.571403
0.586286
0.602424
0.617432
0.628832
0.634333
0.632183
0.621483
0.602401
0.576223
0.545239
0.512479
0.481271
0.454614
0.434927
0.4238
0.421793
0.428604
0.443073
0.463423
0.487554
0.513274
0.538513
0.561187
0.57938
0.591571
0.596701
0.59441
0.585315
0.571223
0.555185
0.54131
0.534323
0.538588
0.557212
0.592139
0.643846
0.710899
0.790119
0.877347
0.967006
1.05346
1.13161
1.19678
1.24363
1.2677
1.26683
1.23976
1.18646
1.10866
1.01021
0.897035
0.776366
0.655677
0.540977
0.435028
0.339751
0.256329
0.184969
0.125148
0.0756561
0.0347126
0
-0.0177132
-0.0364784
-0.0689545
-0.197643
-0.450548
-0.802803
-1.19891
-1.10877
-0.120099
1.91127
4.704
7.5786
9.7099
10.4901
9.80201
8.04118
5.88123
3.9369
2.52642
1.64795
1.12725
0.797556
0.742913
0.697071
0.654704
0.61609
0.581409
0.551003
0.525485
0.505635
0.492406
0.486734
0.487989
0.494688
0.504986
0.517309
0.530912
0.546112
0.564128
0.586641
0.615314
0.650837
0.693498
0.743969
0.802908
0.871016
0.948979
1.03728
1.13599
1.24461
1.36196
1.48661
1.61713
1.75247
1.89218
2.03661
2.18685
2.34461
2.51182
2.69027
2.88118
3.08492
3.30083
3.52719
3.76149
4.00088
4.24244
4.48336
4.71989
4.94826
5.18126
5.41946
5.62695
5.74949
5.7457
5.60823
5.36264
5.04673
4.68499
4.2839
3.86875
3.45548
3.05063
2.6614
2.29533
1.95886
1.65714
1.39511
1.17169
0.980492
0.812944
0.660385
0.516175
0.377178
0.244217
0.121439
0.0148033
-0.0682451
-0.111777
-0.104551
-0.0631699
-0.0129135
0.0207897
0.0203741
-0.0191175
-0.0898981
-0.175593
-0.257866
-0.323273
-0.372445
-0.409873
-0.437337
-0.455717
-0.465838
-0.468281
-0.463471
-0.451543
-0.43273
-0.409258
-0.385993
-0.368603
-0.362028
-0.368908
-0.38864
-0.417483
-0.449734
-0.479522
-0.502922
-0.519731
-0.530628
-0.537167
-0.541603
-0.546304
-0.553225
-0.56356
-0.577587
-0.594662
-0.613393
-0.631978
-0.648397
-0.660574
-0.666557
-0.664604
-0.65349
-0.632653
-0.602216
-0.562394
-0.514788
-0.463066
-0.411466
-0.364133
-0.324467
-0.294655
-0.275484
-0.266426
-0.265902
-0.271597
-0.280544
-0.290159
-0.298295
-0.303146
-0.303167
-0.29744
-0.285529
-0.267386
-0.243253
-0.213612
-0.17916
-0.140569
-0.099574
-0.0587434
-0.0207463
0.0123565
0.0398717
0.0630029
0.0849285
0.110347
0.144574
0.191685
0.253179
0.328985
0.420508
0.526598
0.641087
0.755023
0.859384
0.946538
1.01122
1.05097
1.06614
1.05961
1.03634
1.00262
0.964912
0.928434
0.896237
0.868669
0.844536
0.822715
0.802199
0.782736
0.765174
0.751387
0.743754
0.744515
0.756904
0.779475
0.803834
0.817233
0.796402
0.644757
0.362542
0
-0.3031
0.103689
1.54567
3.99409
6.96568
9.6461
11.2132
11.2069
9.73915
7.4214
5.05452
3.26728
2.30062
2.02123
2.10302
2.16967
2.18299
2.19607
2.21272
2.2362
2.26874
2.31143
2.36419
2.42608
2.49559
2.57094
2.6501
2.7314
2.81339
2.89461
2.97412
3.05173
3.1283
3.20569
3.2865
3.37351
3.469
3.57424
3.68849
3.81042
3.93878
4.07237
4.21051
4.35332
4.50188
4.65818
4.82491
5.00502
5.20122
5.41546
5.64844
5.89931
6.16558
6.44335
6.72785
7.01413
7.29782
7.5758
7.84657
8.11037
8.36813
8.62149
8.87749
9.1505
9.43037
9.68043
9.86241
9.94842
9.92799
9.80903
9.61127
9.3534
9.04016
8.67536
8.28549
7.89255
7.50705
7.13625
6.78866
6.47178
6.19231
5.95837
5.77261
5.62853
5.51673
5.42733
5.35219
5.2863
5.22791
5.17769
5.13727
5.10682
5.08624
5.07477
5.071
5.07334
5.08039
5.09102
5.10431
5.11926
5.13458
5.1488
5.16022
5.16705
5.16777
5.16129
5.14718
5.12569
5.09773
5.06465
5.02807
4.98966
4.95089
4.91292
4.87655
4.84221
4.80992
4.77922
4.74907
4.71796
4.68409
4.6457
4.60134
4.55024
4.49243
4.42892
4.3615
4.29268
4.22516
4.16164
4.10451
4.05555
4.01577
3.98546
3.96383
3.94936
3.94016
3.93431
3.93015
3.92651
3.92275
3.9187
3.91456
3.91069
3.90738
3.90475
3.90263
3.90033
3.89674
3.89067
3.88117
3.86771
3.85023
3.82893
3.80395
3.77517
3.74234
3.70524
3.66431
3.62099
3.57852
3.54179
3.51645
3.50798
3.52067
3.55694
3.61703
3.69922
3.80022
3.92005
4.05878
4.21289
4.36913
4.50711
4.60188
4.6247
4.55067
4.37035
4.09845
3.77259
3.43944
3.13074
2.83874
2.55303
2.27048
1.99068
1.71449
1.44427
1.18374
0.937577
0.710633
0.507069
0.329655
0.179007
0.0538334
-0.0487309
-0.132577
-0.201478
-0.259719
-0.311028
-0.358418
-0.404272
0
1.13717
3.2064
5.98939
8.87311
11.0599
11.9135
11.2526
9.42325
7.10997
5.00188
3.51189
2.68846
2.32405
2.14665
1.92993
1.72268
1.52818
1.35467
1.2097
1.09833
1.0218
0.977104
0.957696
0.955041
0.960501
0.966895
0.970452
0.969991
0.965336
0.956572
0.94372
0.9265
0.904326
0.876573
0.84269
0.802561
0.756903
0.707546
0.657495
0.610745
0.571847
0.545328
0.534635
0.541979
0.568456
0.614102
0.678076
0.759045
0.855664
0.967
1.09274
1.23315
1.38876
1.55991
1.74633
1.94686
2.15945
2.3814
2.6098
2.842
3.07611
3.31158
3.55509
3.9032
4.32471
4.71425
4.99106
5.11544
5.07976
4.88592
4.53662
4.04667
3.45552
2.82373
2.23658
1.8021
1.45213
1.1329
0.835252
0.560281
0.30841
0.080937
-0.121347
-0.300443
-0.458051
-0.59478
-0.710161
-0.802933
-0.871523
-0.914682
-0.932208
-0.925668
-0.899931
-0.860694
-0.815241
-0.771528
-0.736998
-0.715988
-0.712567
-0.729897
-0.772778
-0.843966
-0.945317
-1.07867
-1.24528
-1.4449
-1.68108
-1.96675
-2.29368
-2.62169
-2.9098
-3.13171
-3.27685
-3.34712
-3.35337
-3.31292
-3.24709
-3.17769
-3.12094
-3.08075
-3.05429
-3.03828
-3.03076
-3.0306
-3.03615
-3.04494
-3.05379
-3.0591
-3.05728
-3.04528
-3.02104
-2.98388
-2.93452
-2.8748
-2.8073
-2.73498
-2.66074
-2.58725
-2.51735
-2.45554
-2.40809
-2.38016
-2.37674
-2.40086
-2.45138
-2.52172
-2.59995
-2.67082
-2.71898
-2.73324
-2.71515
-2.67101
-2.60607
-2.52463
-2.43117
-2.32995
-2.22432
-2.11622
-2.00611
-1.89325
-1.77619
-1.65342
-1.52392
-1.38756
-1.24516
-1.0984
-0.949593
-0.801427
-0.656786
-0.518658
-0.390232
-0.275718
-0.178368
-0.0998238
-0.0399185
0.00378647
0.0360252
0.0632729
0.092617
0.130329
0.180466
0.243237
0.318273
0.399651
0.476429
0.537351
0.573528
0.580162
0.557008
0.507765
0.438907
0.358469
0.275235
0.196281
0.126733
0.0707191
0.0306732
0.00695725
-0.00253067
-9.46045e-005
0.0112831
0.0284119
0.0480759
0.0673958
0.0829201
0.0906364
0.08731
0.0707733
0.0408554
0
-0.0572853
-0.112952
0.550269
2.21359
4.76948
7.67066
10.1149
11.3857
11.1663
9.64993
7.3978
5.04982
3.06659
1.63215
0.717224
0.203593
0.0187027
-0.0820755
-0.178664
-0.270589
-0.357106
-0.437297
-0.509821
-0.572549
-0.625524
-0.672781
-0.719879
-0.772171
-0.833111
-0.903402
-0.981396
-1.06444
-1.15035
-1.23806
-1.3272
-1.41779
-1.50939
-1.60043
-1.68728
-1.76401
-1.82369
-1.85935
-1.86515
-1.83731
-1.7745
-1.67764
-1.54922
-1.39247
-1.21202
-1.01417
-0.803183
-0.581999
-0.354021
-0.123018
0.107175
0.333136
0.552367
0.763667
0.967274
1.16472
1.35848
1.55141
1.74663
1.95
2.17368
2.41997
2.65773
2.84623
2.94998
2.95178
2.85683
2.68331
2.44587
2.1452
1.775
1.36441
0.946944
0.540048
0.150697
-0.217766
-0.559583
-0.869928
-1.14583
-1.38615
-1.5907
-1.7615
-1.9035
-2.02228
-2.12308
-2.20905
-2.28166
-2.34126
-2.38658
-2.41572
-2.4273
-2.42114
-2.39856
-2.36214
-2.31526
-2.26191
-2.20577
-2.14975
-2.09686
-2.05
-2.01103
-1.98066
-1.95803
-1.94075
-1.92531
-1.90802
-1.88612
-1.85872
-1.82694
-1.79474
-1.76701
-1.74772
-1.73836
-1.73734
-1.7405
-1.74244
-1.73821
-1.72573
-1.70571
-1.67968
-1.64961
-1.61816
-1.58799
-1.56122
-1.53916
-1.52229
-1.51039
-1.50289
-1.49927
-1.49913
-1.50221
-1.50826
-1.51673
-1.52645
-1.53543
-1.54098
-1.53999
-1.5295
-1.50745
-1.47316
-1.42695
-1.37035
-1.3058
-1.23609
-1.16399
-1.09164
-1.02054
-0.951544
-0.885027
-0.821126
-0.759959
-0.701736
-0.646845
-0.595775
-0.548998
-0.50692
-0.469856
-0.438074
-0.411967
-0.392397
-0.380646
-0.377907
-0.385294
-0.403375
-0.432091
-0.47149
-0.516896
-0.560408
-0.59366
-0.609843
-0.605272
-0.58
-0.537369
-0.482823
-0.42251
-0.362035
-0.304665
-0.252586
-0.206728
-0.166603
-0.130299
-0.094664
-0.0557938
-0.00975647
0.0465103
0.114389
0.192447
0.278223
0.367079
0.452318
0.527214
0.586208
0.625674
0.644098
0.641751
0.620119
0.5814
0.528691
0.466409
0.39846
0.328352
0.259734
0.196243
0.14189
0.0988266
0.066095
0.0409348
0.019899
0
0.0105591
0.0193497
0.0255631
0.0276169
0.0204697
-0.0361237
-0.182333
-0.422688
-0.721071
-0.706436
0.170763
2.02952
4.47483
6.77498
8.28104
8.73724
8.26476
7.14223
5.64799
4.06152
2.68594
1.75572
1.30584
1.17707
1.22159
1.25152
1.27337
1.28331
1.27918
1.26134
1.23289
1.19927
1.16729
1.1438
1.13433
1.1424
1.1692
1.21398
1.2747
1.34875
1.43263
1.52379
1.62019
1.71926
1.81824
1.9143
2.00471
2.08703
2.15994
2.22339
2.27894
2.32979
2.3808
2.43805
2.50834
2.59828
2.71293
2.85444
3.02387
3.21977
3.43824
3.67348
3.91819
4.16546
4.40944
4.64571
4.87177
5.08719
5.29317
5.49141
5.68545
5.89411
6.17263
6.51888
6.8645
7.13788
7.28478
7.28258
7.14099
6.89205
6.57536
6.22054
5.84173
5.45971
5.0852
4.72003
4.36746
4.0316
3.71572
3.42209
3.15198
2.90587
2.68376
2.48547
2.31077
2.1593
2.03038
1.92266
1.83402
1.76146
1.70141
1.65012
1.60419
1.561
1.51897
1.47765
1.43746
1.3994
1.36467
1.33427
1.30886
1.2886
1.27321
1.26201
1.25399
1.24787
1.24215
1.2352
1.22533
1.21094
1.1907
1.16366
1.12937
1.08783
1.03953
0.985243
0.926028
0.863133
0.797997
0.732261
0.667761
0.606455
0.550253
0.500791
0.459175
0.425806
0.400245
0.381329
0.367415
0.356697
0.347539
0.338716
0.329517
0.319708
0.309393
0.298843
0.288349
0.278114
0.268201
0.258513
0.248775
0.23853
0.227164
0.213985
0.198406
0.180183
0.159674
0.137989
0.116959
0.0988503
0.0860065
0.0810059
0.0852856
0.0961533
0.10881
0.117851
0.119085
0.110913
0.0947144
0.0740814
0.0532902
0.0356155
0.0216309
0.0111439
0.00318604
-0.00339394
-0.00929527
-0.0143536
-0.0174648
-0.0167892
-0.0102535
0.00372009
0.0267406
0.0600048
0.104218
0.159898
0.227029
0.304118
0.387464
0.470934
0.546584
0.606164
0.642321
0.649839
0.626736
0.574932
0.500228
0.411438
0.318736
0.231201
0.153544
0.0873066
0.0339287
-0.00645447
-0.0345482
-0.0513947
-0.0580246
-0.0553417
-0.0440403
-0.0249378
0
0.0472807
0.0939535
0.122733
-0.0271269
-0.346385
-0.754511
-1.14732
-1.04971
-0.127979
1.76923
4.40858
7.16052
9.21612
9.94383
9.18941
7.33525
5.08455
3.11036
1.78129
1.10336
0.85916
0.808098
0.812997
0.814299
0.813159
0.809371
0.803401
0.79642
0.79019
0.786861
0.788702
0.797749
0.815594
0.843211
0.880874
0.928119
0.984292
1.0485
1.11815
1.18996
1.2613
1.33091
1.39949
1.46963
1.54519
1.63028
1.7282
1.83932
1.96211
2.09529
2.23736
2.38645
2.54069
2.69843
2.85846
3.02018
3.18378
3.3504
3.52201
3.7011
3.89007
4.0905
4.30255
4.52453
4.75297
4.98322
5.20961
5.42584
5.62461
5.79716
5.93527
6.03439
6.08906
6.09277
6.03892
5.92226
5.74039
5.49455
5.18985
4.83764
4.45695
4.06218
3.6622
3.26549
2.88036
2.51454
2.17471
1.86615
1.59245
1.35537
1.15484
0.989094
0.854903
0.747946
0.663235
0.595616
0.54028
0.493234
0.451642
0.413987
0.37998
0.350236
0.325774
0.307709
0.297099
0.293317
0.293528
0.294277
0.292726
0.287779
0.280653
0.274635
0.274114
0.283239
0.303517
0.334152
0.374233
0.42192
0.474203
0.527076
0.576802
0.620676
0.65736
0.686881
0.710309
0.729193
0.744946
0.758383
0.769691
0.778582
0.784438
0.786746
0.785265
0.780049
0.771332
0.759385
0.744558
0.727163
0.707576
0.686509
0.665158
0.645215
0.628738
0.617863
0.614473
0.61989
0.634534
0.65781
0.68813
0.722826
0.758126
0.789882
0.814305
0.828478
0.830729
0.820817
0.799912
0.770365
0.735334
0.698392
0.66278
0.630959
0.604787
0.585501
0.573584
0.568811
0.570223
0.576222
0.585072
0.595287
0.60596
0.616944
0.628815
0.642606
0.659389
0.680011
0.704666
0.731882
0.758701
0.781678
0.797864
0.805664
0.805328
0.798955
0.79008
0.783078
0.782228
0.790564
0.811474
0.847665
0.900836
0.97126
1.06452
1.17871
1.3
1.41226
1.50147
1.55908
1.5828
1.57465
1.53812
1.47626
1.395
1.30162
1.20022
1.09494
0.990609
0.892104
0.802918
0.724968
0.660231
0.609869
0.574285
0.553264
0.546936
0.554944
0.572427
0.592321
0.605957
0.577038
0.37145
0
-0.45876
-0.734151
-0.281525
1.20926
3.6937
6.67319
9.3244
10.8337
10.7728
9.29767
7.04632
4.79882
3.11227
2.14004
1.70033
1.49331
1.3207
1.24368
1.17778
1.12478
1.08889
1.06951
1.06188
1.05959
1.05658
1.04887
1.03555
1.01875
1.0029
0.993492
0.994686
1.00833
1.036
1.07894
1.13727
1.21005
1.29536
1.39054
1.49249
1.59807
1.70455
1.80999
1.91343
2.01496
2.11558
2.21706
2.32159
2.4316
2.54956
2.67782
2.81859
2.97383
3.14508
3.33331
3.53864
3.76019
3.99599
4.24313
4.49806
4.757
5.01646
5.27312
5.52264
5.75852
5.97544
6.16917
6.32401
6.4172
6.42923
6.35136
6.18607
5.94196
5.62903
5.25888
4.86164
4.45811
4.05755
3.66557
3.28798
2.93
2.59598
2.28917
2.01164
1.76424
1.54667
1.35763
1.195
1.05606
0.937749
0.836964
0.750759
0.676543
0.612178
0.556038
0.506964
0.46425
0.427609
0.39711
0.373077
0.355929
0.346078
0.343771
0.348542
0.358589
0.370708
0.381011
0.385791
0.382368
0.369793
0.349184
0.323573
0.297286
0.274969
0.260292
0.254775
0.259854
0.274657
0.295705
0.319034
0.341515
0.361855
0.380905
0.401165
0.425649
0.45651
0.494469
0.536954
0.579096
0.615193
0.640376
0.651915
0.649695
0.635869
0.613946
0.587766
0.560851
0.535452
0.513141
0.495219
0.48305
0.477653
0.479665
0.489124
0.505838
0.528454
0.554148
0.579735
0.602349
0.620009
0.631869
0.638111
0.639542
0.637123
0.631789
0.624216
0.614704
0.603556
0.591209
0.578303
0.565666
0.554234
0.544904
0.538531
0.535886
0.537543
0.543787
0.554536
0.569315
0.587215
0.606727
0.625827
0.642562
0.655525
0.664237
0.669322
0.67239
0.675649
0.681351
0.691234
0.705861
0.725082
0.748489
0.775388
0.805426
0.83895
0.877083
0.921475
0.973738
1.03478
1.10419
1.17998
1.25874
1.33659
1.40967
1.47499
1.53099
1.5777
1.6166
1.6501
1.68076
1.71061
1.74056
1.76948
1.79304
1.80477
1.79802
1.7681
1.71414
1.63977
1.55256
1.46217
1.37798
1.30491
1.2432
1.19299
1.15337
1.12223
1.09662
1.07316
1.04825
1.01681
0.957079
0.786285
0.505225
0.156804
-0.206505
0
1.11023
3.2398
6.07126
8.90295
10.9151
11.5338
10.6866
8.80266
6.56419
4.57377
3.13336
2.23406
1.70481
1.38468
1.38151
1.39911
1.42834
1.47058
1.52495
1.58856
1.65752
1.72594
1.7856
1.82907
1.8514
1.85197
1.83573
1.81304
1.7974
1.80175
1.8343
1.89112
1.96301
2.04379
2.12819
2.21172
2.2917
2.3677
2.44136
2.51582
2.59483
2.68199
2.77967
2.88924
3.01186
3.14829
3.29903
3.46433
3.64417
3.8382
4.04566
4.26528
4.49535
4.73366
4.97762
5.22433
5.47071
5.71367
5.95029
6.17765
6.39207
6.58784
6.7575
6.89538
6.99812
7.05723
7.06041
6.99476
6.8501
6.62152
6.31162
5.9324
5.50814
5.07166
4.64294
4.23065
3.84276
3.48573
3.16338
2.87697
2.62548
2.40628
2.21578
2.05008
1.90545
1.7786
1.66679
1.56782
1.48012
1.40286
1.33615
1.2807
1.23707
1.20607
1.18838
1.18404
1.19212
1.21057
1.23637
1.26583
1.29495
1.32017
1.33824
1.34598
1.34104
1.3219
1.28817
1.24087
1.18255
1.11729
1.05025
0.987108
0.93298
0.891124
0.864367
0.85561
0.866148
0.892314
0.92417
0.950532
0.962108
0.953677
0.925367
0.8827
0.835291
0.794415
0.769997
0.765104
0.776452
0.800605
0.833442
0.868645
0.900071
0.923022
0.934975
0.935556
0.925906
0.907803
0.882977
0.853444
0.820475
0.7856
0.750833
0.718624
0.691534
0.671753
0.66014
0.656903
0.661512
0.672662
0.688461
0.706603
0.724659
0.739945
0.749981
0.752742
0.746917
0.732072
0.708675
0.678003
0.641964
0.602935
0.56365
0.527012
0.496193
0.474126
0.463193
0.464794
0.479013
0.50454
0.538898
0.57895
0.621532
0.664064
0.705119
0.744132
0.781264
0.817255
0.853176
0.890149
0.929076
0.970426
1.01411
1.05922
1.10379
1.14476
1.1784
1.20111
1.20989
1.20284
1.17946
1.14078
1.08916
1.02793
0.960814
0.891387
0.822342
0.755082
0.689975
0.626704
0.564415
0.501921
0.437877
0.370765
0.299517
0.224665
0.147606
0.0700047
-0.00657768
-0.0811226
-0.154063
-0.226236
-0.319429
0
1.10471
3.119
5.7283
8.22858
9.81853
9.9805
8.72671
6.56921
4.24833
2.39411
1.30519
0.928242
0.991835
1.08506
1.02307
0.953827
0.881335
0.81255
0.755322
0.71687
0.702076
0.712239
0.744704
0.79353
0.850967
0.909304
0.963346
1.01117
1.05221
1.08764
1.11991
1.15202
1.18683
1.22652
1.27209
1.32383
1.3818
1.44598
1.51648
1.59375
1.67865
1.77229
1.87598
1.99091
2.11803
2.25788
2.41059
2.57585
2.75308
2.94152
3.14035
3.34876
3.56596
3.79113
4.02341
4.2618
4.50505
4.75173
5.00027
5.2461
5.47834
5.68365
5.8488
5.96366
6.02275
6.02433
5.96778
5.85135
5.67202
5.42784
5.12727
4.78357
4.41317
4.03284
3.65425
3.28443
2.92972
2.59509
2.28393
1.99801
1.73777
1.50263
1.29138
1.1026
0.934919
0.787141
0.658291
0.547533
0.453939
0.37669
0.315049
0.267107
0.230443
0.202644
0.181634
0.165905
0.154567
0.147221
0.143716
0.143921
0.147565
0.154366
0.164097
0.176682
0.192192
0.210695
0.23203
0.255597
0.280282
0.304626
0.327111
0.346548
0.362407
0.374993
0.385369
0.395047
0.405532
0.417804
0.432118
0.447312
0.460484
0.46792
0.466246
0.453552
0.430111
0.398425
0.362516
0.326726
0.294469
0.266984
0.244174
0.225162
0.208915
0.194955
0.183694
0.1763
0.174193
0.178449
0.188882
0.204852
0.225658
0.250592
0.279169
0.311444
0.347894
0.389291
0.436543
0.490561
0.551315
0.614248
0.669584
0.706385
0.716066
0.695894
0.650943
0.593317
0.538642
0.50119
0.488065
0.493599
0.511699
0.539317
0.573619
0.611544
0.650153
0.686783
0.7193
0.746203
0.766681
0.780607
0.788467
0.791256
0.790348
0.787375
0.784128
0.782455
0.78427
0.791481
0.805942
0.829369
0.863248
0.908735
0.966541
1.03682
1.11902
1.21212
1.31585
1.42739
1.53893
1.64079
1.72377
1.78079
1.80785
1.80424
1.77195
1.71511
1.63936
1.55248
1.46177
1.37312
1.29115
1.21856
1.1559
1.10286
1.05864
1.02151
0.988599
0.956071
0.919952
0.876656
0.822624
0.7541
0.667037
0.554156
0.40948
0.244001
0.064711
-0.121806
0
0.828968
2.6145
5.2113
8.02406
10.2251
11.144
10.5952
8.93843
6.84726
4.94766
3.55973
2.67111
2.0978
1.67603
1.54301
1.44626
1.36378
1.29857
1.25201
1.22417
1.21411
1.22031
1.24073
1.27306
1.31526
1.36524
1.42081
1.4797
1.53956
1.59805
1.6525
1.70082
1.74177
1.77538
1.80322
1.82842
1.85522
1.88832
1.93211
1.98994
2.06228
2.1487
2.2492
2.36372
2.49214
2.63433
2.79013
2.95926
3.14121
3.33517
3.54011
3.75496
3.9787
4.21053
4.44972
4.69539
4.94616
5.19973
5.45248
5.69687
5.92204
6.11727
6.27314
6.38276
6.44204
6.44884
6.40191
6.3002
6.14309
5.9332
5.67725
5.38359
5.06195
4.72354
4.37908
4.03637
3.70155
3.37931
3.07287
2.78424
2.51454
2.26444
2.03458
1.82576
1.63911
1.47651
1.33963
1.22944
1.14631
1.08973
1.0581
1.04898
1.0604
1.08974
1.13193
1.17787
1.21726
1.24133
1.24431
1.2245
1.18466
1.13139
1.07353
1.0201
0.977724
0.947999
0.930019
0.922883
0.925941
0.937824
0.956777
0.980656
1.00655
1.03153
1.05319
1.06987
1.08087
1.08631
1.08684
1.08326
1.07628
1.06655
1.05456
1.04107
1.02733
1.01523
1.0071
1.00533
1.0118
1.02702
1.05212
1.08582
1.12199
1.15341
1.17363
1.17881
1.16863
1.14616
1.11679
1.08674
1.0618
1.04481
1.03692
1.03973
1.05683
1.09701
1.17573
1.29492
1.42539
1.52916
1.57274
1.53991
1.43851
1.29832
1.16093
1.06565
1.02697
1.0242
1.04074
1.06908
1.10529
1.14507
1.18397
1.21825
1.24532
1.2638
1.27349
1.27499
1.26934
1.25774
1.24144
1.22182
1.20041
1.17921
1.16094
1.14863
1.14518
1.15271
1.17191
1.20182
1.23984
1.28222
1.32478
1.36381
1.39662
1.42184
1.43951
1.45112
1.45934
1.4677
1.4801
1.50044
1.53214
1.57768
1.63812
1.71431
1.80696
1.9125
2.02017
2.11599
2.18732
2.22494
2.22422
2.18532
2.11278
2.01471
1.90178
1.78611
1.6781
1.58315
1.50304
1.43932
1.39333
1.3626
1.34271
1.3281
1.31282
1.29124
1.25839
1.21013
1.12875
0.941267
0.655692
0.301103
-0.0849552
0
0.908503
2.80701
5.49754
8.3965
10.7108
11.7612
11.2897
9.57047
7.25645
5.0579
3.44499
2.53098
2.15443
2.05739
1.97046
1.87649
1.78067
1.68431
1.59134
1.50848
1.44319
1.40181
1.38754
1.3992
1.43129
1.47555
1.52332
1.56799
1.60726
1.64193
1.6728
1.70127
1.72891
1.75743
1.78877
1.82538
1.8703
1.92695
1.99854
2.08727
2.19365
2.31526
2.44817
2.58788
2.72973
2.86975
3.00579
3.1381
3.26941
3.40444
3.54898
3.70866
3.88785
4.08866
4.31052
4.55078
4.80507
5.06797
5.33402
5.59724
5.85001
6.08219
6.28285
6.44556
6.56651
6.63527
6.63768
6.56165
6.4026
6.16602
5.86556
5.51772
5.14043
4.75119
4.3597
3.97061
3.58836
3.21784
2.86405
2.5317
2.22476
1.94613
1.69752
1.4795
1.29211
1.13626
1.01133
0.915477
0.846335
0.800816
0.776243
0.768512
0.771415
0.779001
0.786527
0.791145
0.792079
0.790195
0.787161
0.784508
0.782917
0.782089
0.781154
0.779057
0.775015
0.768816
0.760877
0.752111
0.743696
0.73679
0.732395
0.731398
0.734419
0.741682
0.752859
0.767078
0.78262
0.797056
0.807654
0.811797
0.807374
0.793097
0.768692
0.734991
0.693961
0.648372
0.602442
0.562121
0.53331
0.520623
0.52621
0.549053
0.585061
0.627972
0.670783
0.707243
0.734694
0.751882
0.758038
0.75368
0.740368
0.7205
0.697055
0.673241
0.652041
0.635706
0.62603
0.622993
0.624319
0.626795
0.627366
0.624152
0.61699
0.607383
0.59793
0.591518
0.590309
0.595126
0.60618
0.623469
0.646622
0.675043
0.707587
0.74199
0.774812
0.802242
0.820879
0.828562
0.825026
0.812184
0.793892
0.775268
0.761753
0.757895
0.766123
0.787098
0.820854
0.867409
0.926625
0.998078
1.08159
1.17812
1.29025
1.42071
1.56412
1.7018
1.81166
1.87351
1.8749
1.81531
1.70672
1.57012
1.42953
1.30532
1.20128
1.11142
1.03071
0.956331
0.886691
0.820786
0.758232
0.699155
0.643708
0.591694
0.541987
0.492189
0.438714
0.374399
0.28261
0.162504
0.0240831
-0.239052
0
1.08316
3.06251
5.59463
8.01031
9.57773
9.82463
8.74267
6.76522
4.5458
2.67308
1.47165
0.960832
0.943523
1.09795
1.07967
1.05673
1.03084
1.00429
0.97964
0.959132
0.944244
0.9353
0.932335
0.93544
0.945295
0.963385
0.991742
1.03228
1.08599
1.15135
1.22566
1.30596
1.38874
1.47056
1.54866
1.62142
1.68867
1.75167
1.81292
1.87573
1.94374
2.0203
2.1081
2.20876
2.3228
2.4497
2.58846
2.73809
2.898
3.06837
3.25015
3.44496
3.65466
3.88092
4.12472
4.38606
4.66371
4.95742
5.27022
5.60011
5.9289
6.22502
6.46069
6.62774
6.72748
6.76084
6.72274
6.60481
6.40292
6.12168
5.77219
5.37278
4.95473
4.54008
4.13608
3.74733
3.38001
3.03921
2.7286
2.45029
2.20494
1.99196
1.80991
1.65668
1.5298
1.42647
1.34365
1.27811
1.22654
1.18578
1.15305
1.12627
1.10425
1.0869
1.07536
1.07143
1.07713
1.09399
1.1268
1.17667
1.23494
1.29009
1.3316
1.3535
1.3559
1.34388
1.32473
1.30501
1.28845
1.27553
1.26667
1.26215
1.26193
1.26567
1.27238
1.2803
1.28717
1.29053
1.28814
1.27854
1.26133
1.23743
1.20902
1.17933
1.15202
1.13058
1.11783
1.11557
1.12523
1.14736
1.18022
1.21873
1.2567
1.28874
1.3115
1.32417
1.32817
1.32596
1.31972
1.31021
1.29694
1.27848
1.25357
1.22222
1.18622
1.1491
1.11528
1.08906
1.07244
1.06642
1.07095
1.08476
1.10568
1.131
1.15808
1.1847
1.20908
1.22998
1.24667
1.25894
1.26699
1.27131
1.27256
1.27158
1.2693
1.26681
1.26538
1.26647
1.27164
1.28237
1.29994
1.32515
1.3582
1.39862
1.44529
1.49665
1.55095
1.60667
1.66278
1.71899
1.77567
1.83373
1.89456
1.95977
2.02875
2.09502
2.14816
2.17678
2.17201
2.13032
2.05479
1.95433
1.84166
1.73042
1.6299
1.54249
1.46832
1.40826
1.36197
1.32751
1.30211
1.28258
1.2658
1.24901
1.22986
1.20644
1.17618
1.12585
0.980667
0.720171
0.365082
-0.0309422
0
0.892863
2.84626
5.6167
8.53006
10.7377
11.5989
10.9697
9.23054
7.05075
5.05381
3.58297
2.67088
2.16719
1.89614
1.81649
1.74676
1.68246
1.62652
1.58152
1.54921
1.53064
1.52598
1.53432
1.55373
1.58159
1.61509
1.65181
1.69003
1.72896
1.76853
1.80917
1.85152
1.89637
1.94454
1.99686
2.05412
2.11697
2.1859
2.26118
2.34289
2.43098
2.52543
2.6264
2.73437
2.85021
2.97513
3.11053
3.25779
3.41802
3.59183
3.77921
3.97955
4.19179
4.41461
4.64668
4.88682
5.13405
5.38753
5.64707
5.91396
6.18785
6.4581
6.70081
6.89362
7.0219
7.08006
7.06852
6.98903
6.8416
6.62384
6.33194
5.96566
5.54171
5.08839
4.6297
4.17829
3.74217
3.3297
2.94753
2.60028
2.28914
2.01275
1.76797
1.55094
1.35813
1.18691
1.03577
0.904174
0.793425
0.70375
0.632933
0.577849
0.535044
0.501468
0.474959
0.454304
0.43885
0.427901
0.420346
0.414003
0.406073
0.393709
0.374686
0.347924
0.31371
0.27363
0.230285
0.186882
0.14631
0.111217
0.0838036
0.0655743
0.0572086
0.0585217
0.0685356
0.0856174
0.107661
0.132182
0.156783
0.179092
0.19697
0.208665
0.212958
0.209287
0.197833
0.179569
0.156279
0.130531
0.105597
0.0854664
0.0744709
0.0767097
0.0955471
0.133052
0.189557
0.264588
0.356585
0.460765
0.568586
0.666855
0.743085
0.788071
0.796651
0.768853
0.71092
0.635004
0.5566
0.490076
0.444213
0.415333
0.396412
0.384308
0.376909
0.373278
0.373899
0.380346
0.394515
0.417699
0.449257
0.48773
0.53048
0.572881
0.610048
0.638366
0.656519
0.665915
0.670367
0.675134
0.685629
0.70624
0.738768
0.7824
0.835806
0.897871
0.966983
1.04145
1.11898
1.19399
1.25929
1.3079
1.33476
1.33825
1.32047
1.28628
1.24165
1.19201
1.14165
1.0928
1.04693
1.0054
0.969263
0.939513
0.916895
0.899771
0.883594
0.862405
0.830065
0.78156
0.713898
0.626362
0.520182
0.393566
0.250847
0.0969425
-0.0668726
0
0.747965
2.417
4.83694
7.38663
9.23786
9.76481
8.86356
6.97839
4.83285
3.05717
1.94527
1.44845
1.33928
1.39071
1.40493
1.41552
1.42201
1.42447
1.42441
1.42454
1.42809
1.43798
1.456
1.48194
1.51406
1.54999
1.58689
1.62199
1.65309
1.67887
1.69887
1.71321
1.72291
1.72963
1.73556
1.74346
1.75651
1.77809
1.81129
1.8584
1.92052
1.99659
2.08487
2.18323
2.28938
2.40132
2.51793
2.63907
2.76562
2.89926
3.0422
3.19677
3.3651
3.54865
3.74789
3.96201
4.18869
4.42579
4.66819
4.90306
5.11461
5.28938
5.41827
5.49693
5.52427
5.50009
5.42299
5.28997
5.09789
4.85019
4.55467
4.22109
3.86163
3.49048
3.11932
2.75591
2.40734
2.07974
1.77803
1.50578
1.26505
1.05628
0.878347
0.728809
0.604214
0.500535
0.413589
0.339396
0.274465
0.215924
0.1617
0.110787
0.0633471
0.0208303
-0.0144608
-0.0396994
-0.0523985
-0.051232
-0.0365427
-0.010372
0.023984
0.0627132
0.10224
0.140093
0.174982
0.206123
0.232988
0.255075
0.271682
0.28217
0.286307
0.284364
0.277461
0.26776
0.258334
0.252675
0.253911
0.263972
0.282841
0.309473
0.33998
0.369543
0.393614
0.408937
0.414081
0.409383
0.39646
0.377548
0.35504
0.331189
0.307672
0.285923
0.26715
0.252267
0.241907
0.235487
0.231011
0.225684
0.216616
0.201703
0.180409
0.154196
0.126428
0.101715
0.0847034
0.0785748
0.0849863
0.104278
0.133967
0.170207
0.208856
0.246437
0.280647
0.310331
0.334807
0.353835
0.367081
0.374186
0.375123
0.37057
0.362042
0.351717
0.342051
0.335362
0.333047
0.336223
0.346165
0.364036
0.39084
0.427273
0.473503
0.528785
0.591562
0.659553
0.729793
0.798304
0.860882
0.913777
0.954188
0.980565
0.992657
0.991298
0.97802
0.95461
0.922893
0.884562
0.840863
0.792786
0.741351
0.687816
0.633754
0.580952
0.53115
0.485609
0.444946
0.408708
0.373074
0.331143
0.274729
0.196269
0.0841197
-0.0617559
-0.234737
-0.422785
0
1.2307
3.22694
5.61038
7.78369
9.166
9.43987
8.67315
7.25181
5.67148
4.31488
3.33852
2.70577
2.30597
2.09735
2.06515
2.04078
2.02139
2.00739
1.99886
1.99562
1.99768
2.00406
2.01241
2.02056
2.02743
2.0337
2.04193
2.05579
2.07872
2.11251
2.15608
2.20563
2.25798
2.31067
2.36219
2.41248
2.46292
2.51595
2.57437
2.64049
2.71534
2.79882
2.88982
2.98652
3.0868
3.18912
3.29315
3.39995
3.51181
3.63167
3.76235
3.90574
4.06196
4.22947
4.40543
4.58579
4.7659
4.94113
5.10736
5.26128
5.40018
5.52128
5.62077
5.69386
5.73655
5.74412
5.71015
5.62769
5.49103
5.29744
5.04839
4.75013
4.41342
4.05537
3.69161
3.33261
2.9874
2.66361
2.36698
2.101
1.86695
1.66405
1.48989
1.34101
1.21343
1.10324
1.00689
0.921393
0.844341
0.773766
0.707834
0.644776
0.582905
0.520723
0.457101
0.391459
0.323873
0.255072
0.18633
0.119267
0.0556273
-0.00283754
-0.0544809
-0.0980077
-0.132549
-0.157715
-0.173506
-0.180882
-0.181768
-0.178845
-0.175644
-0.176662
-0.186209
-0.207726
-0.243177
-0.292631
-0.354182
-0.424298
-0.498535
-0.572426
-0.642384
-0.706812
-0.765164
-0.816795
-0.861464
-0.899131
-0.929826
-0.953639
-0.970799
-0.981742
-0.987143
-0.987822
-0.984574
-0.977944
-0.968001
-0.95423
-0.935621
-0.91068
-0.876141
-0.827938
-0.769296
-0.71268
-0.673523
-0.66452
-0.690414
-0.745679
-0.816035
-0.883072
-0.930051
-0.951185
-0.951896
-0.937615
-0.911654
-0.876411
-0.83411
-0.786814
-0.736385
-0.684457
-0.633235
-0.58586
-0.545483
-0.514471
-0.493367
-0.480211
-0.470762
-0.459694
-0.442435
-0.41688
-0.384965
-0.350194
-0.31698
-0.289316
-0.269416
-0.256941
-0.249026
-0.241027
-0.227717
-0.20494
-0.171345
-0.126886
-0.0724247
-0.0101181
0.0568102
0.124453
0.188694
0.245766
0.292655
0.327337
0.348842
0.357163
0.353058
0.337836
0.313171
0.28099
0.243394
0.202626
0.161
0.120726
0.0836771
0.0511084
0.023468
0
-0.0369606
-0.0786343
-0.132264
-0.205338
-0.312682
-0.479718
-0.701211
-0.962337
-1.24883
-0.901517
0.28621
2.32776
4.89386
7.37036
9.0736
9.53511
8.70565
6.96026
4.90311
3.09021
1.8266
1.12764
0.819867
0.688111
0.560193
0.440454
0.3325
0.241528
0.171383
0.123747
0.0976444
0.0895569
0.0942841
0.106335
0.121428
0.13747
0.154564
0.173946
0.197421
0.22668
0.262774
0.305671
0.354464
0.407641
0.463442
0.520324
0.577355
0.634433
0.692287
0.752279
0.81609
0.885406
0.961715
1.04626
1.14012
1.24446
1.36057
1.48991
1.6338
1.79306
1.96754
2.15579
2.35505
2.56157
2.77123
2.98023
3.1857
3.386
3.58062
3.76859
3.94755
4.11362
4.26058
4.37961
4.46134
4.49768
4.48216
4.40917
4.27368
4.07248
3.80674
3.48667
3.12723
2.74775
2.3682
1.99942
1.64601
1.31363
1.00655
0.727848
0.47961
0.262902
0.0777809
-0.0766869
-0.20243
-0.302325
-0.379908
-0.439152
-0.484447
-0.520245
-0.550538
-0.578468
-0.606054
-0.633953
-0.661353
-0.686008
-0.704452
-0.712449
-0.705618
-0.680151
-0.633509
-0.564942
-0.475705
-0.36894
-0.249226
-0.122024
0.00726242
0.134052
0.254761
0.367035
0.46977
0.562848
0.646814
0.722725
0.791671
0.8541
0.908979
0.952752
0.980583
0.985912
0.962921
0.909806
0.831411
0.739866
0.652496
0.587481
0.558858
0.562294
0.588113
0.632668
0.691239
0.758015
0.826907
0.892225
0.949439
0.995646
1.02971
1.05207
1.06433
1.06865
1.06726
1.06208
1.0547
1.04643
1.03862
1.03272
1.0303
1.03282
1.0413
1.056
1.0761
1.10026
1.12697
1.15467
1.18202
1.20809
1.23249
1.25527
1.27675
1.29721
1.31657
1.33395
1.34752
1.35486
1.35348
1.34154
1.31849
1.28537
1.24453
1.19915
1.15253
1.10746
1.06573
1.02863
0.997419
0.973333
0.957652
0.951691
0.956704
0.973711
1.00337
1.04586
1.10166
1.17386
1.27202
1.41641
1.62192
1.85612
2.06543
2.19491
2.20159
2.06731
1.80595
1.46406
1.11633
0.856286
0.702354
0.594106
0.502513
0.419344
0.342211
0.2693
0.199345
0.131557
0.0653511
0
-0.065699
-0.133705
-0.209979
-0.331899
-0.569511
-0.919428
-1.33258
-1.51671
-0.968515
0.603043
3.12544
6.07465
8.62559
9.99754
9.81495
8.27495
6.01983
3.79862
2.12998
1.15385
0.714413
0.563262
0.524973
0.470676
0.413186
0.351899
0.286313
0.219441
0.157484
0.107703
0.076339
0.0669014
0.07948
0.111254
0.157813
0.214632
0.277171
0.342575
0.409574
0.47758
0.546333
0.615806
0.68611
0.757369
0.829562
0.902358
0.975031
1.04648
1.11538
1.18064
1.24179
1.29943
1.35538
1.41264
85
296
502
704
916
1137
1346
1562
1787
2001
2220
2446
2659
2872
3078
3283
3495
3709
3253
3433
3616
3658
0
0
0
0
0
0
0
0
0
0
0
0
0
0
0
0
0
0
0
0
0
0
0
0
0
0
0
0
0
0
0
0
0
0
0
0
0
0
0
0
0
0
0
0
0
0
0
0
0
0
0
0
0
0
0
0
0
0
0
0
0
0
0
0
0
0
0
0
0
0
0
0
0
0
0
0
0
0
0
0
0
0
0
0
0
0
0
0
0
0
0
0
0
0
0
0
0
0
0
0
0
0
0
0
0
0
0
0
0
0
0
0
0
0
0
0
0
0
0
0
0
0
0
0
0
0
0
0
0
0
0
0
0
0
0
0
0
0
0
0
0
0
0
0
0
0
0
0
0
0
0
0
0
0
0
0
0
0
0
0
0
0
0
0
0
0
0
0
0
0
0
0
0
0
0
0
0
0
0
0
0
0
0
0
0
0
0
0
0
0
0
0
0
0
0
0
0
0
0
0
0
0
0
0
0
0
0
0
0
0
0
0
0
0
0
0
0
0
0
0
0
0
0
0
0
0
0
0
0
0
0
0
0
0
0
0
0
0
0
0
0
0
0
0
0
0
0
0
0
0
0
0
0
0
0
0
0
0
0
0
0
0
0
0
0
0
0
0
0
0
0
0
0
0
0
0
0
0
0
0
0
0
0
0
0
0
0
0
0
0
0
0
0
0
0
0
0
0
0
0
0
0
0
0
0
0
0
0
0
0
0
0
0
0
0
0
0
0
0
0
0
0
0
0
0
0
0
0
0
0
0
0
0
0
0
0
0
0
0
0
0
0
0
0
0
0
0
0
0
0
0
0
0
0
0
0
0
0
0
0
0
0
0
0
0
0
0
0
0
0
0
0
0
0
0
0
0
0
0
0
0
0
0
0
0
0
0
0
0
0
0
0
0
0
0
0
0
0
0
0
0
0
0
0
0
0
0
0
0
0
0
0
0
0
0
0
0
0
0
0
0
0
0
0
0
0
0
0
0
0
0
0
0
0
0
0
0
0
0
0
0
0
0
0
0
0
0
0
0
0
0
0
0
0
0
0
0
0
0
0
0
0
0
0
0
0
0
0
0
0
0
0
0
0
0
0
0
0
0
0
0
0
0
0
0
0
0
0
0
0
0
0
0
0
0
0
0
0
0
0
0
0
0
0
0
0
0
0
0
0
0
0
0
0
0
0
0
0
0
0
0
0
0
0
0
0
0
0
0
0
0
0
0
0
0
0
0
0
0
0
0
0
0
0
0
0
0
0
0
0
0
0
0
0
0
0
0
0
0
0
0
0
0
0
0
0
0
0
0
0
0
0
0
0
0
0
0
0
0
0
0
0
0
0
0
0
0
0
0
0
0
0
0
0
0
0
0
0
0
0
0
0
0
0
0
0
0
0
0
0
0
0
0
0
0
0
0
0
0
0
0
0
0
0
0
0
0
0
0
0
0
0
0
0
0
0
0
0
0
0
0
0
0
0
0
0
0
0
0
0
0
0
0
0
0
0
0
0
0
0
0
0
0
0
0
0
0
0
0
0
0
0
0
0
0
0
0
0
0
0
0
0
0
0
0
0
0
0
0
0
0
0
0
0
0
0
0
0
0
0
0
0
0
0
0
0
0
0
0
0
0
0
0
0
0
0
0
0
0
0
0
0
0
0
0
0
0
0
0
0
0
0
0
0
0
0
0
0
0
0
0
0
0
0
0
0
0
0
0
0
0
0
0
0
0
0
0
0
0
0
0
0
0
0
0
0
0
0
0
0
0
0
0
0
0
0
0
0
0
0
0
0
0
0
0
0
0
0
0
0
0
0
0
0
0
0
0
0
0
0
0
0
0
0
0
0
0
0
0
0
0
0
0
0
0
0
0
0
0
0
0
0
0
0
0
0
0
0
0
0
0
0
0
0
0
0
0
0
0
0
0
0
0
0
0
0
0
0
0
0
0
0
0
0
0
0
0
0
0
0
0
0
0
0
0
0
0
0
0
0
0
0
0
0
0
0
0
0
0
0
0
0
0
0
0
0
0
0
0
0
0
0
0
0
0
0
0
0
0
0
0
0
0
0
0
0
0
0
0
0
0
0
0
0
0
0
0
0
0
0
0
0
0
0
0
0
0
0
0
0
0
0
0
0
0
0
0
0
0
0
0
0
0
0
0
0
0
0
0
0
0
0
0
0
0
0
0
0
0
0
0
0
0
0
0
0
0
0
0
0
0
0
0
0
0
0
0
0
0
0
0
0
0
0
0
0
0
0
0
0
0
0
0
0
0
0
0
0
0
0
0
0
0
0
0
0
0
0
0
0
0
0
0
0
0
0
0
0
0
0
0
0
0
0
0
0
0
0
0
0
0
0
0
0
0
0
0
0
0
0
0
0
0
0
0
0
0
0
0
0
0
0
0
0
0
0
0
0
0
0
0
0
0
0
0
0
0
0
0
0
0
0
0
0
0
0
0
0
0
0
0
0
0
0
0
0
0
0
0
0
0
0
0
0
0
0
0
0
0
0
0
0
0
0
0
0
0
0
0
0
0
0
0
0
0
0
0
0
0
0
0
0
0
0
0
0
0
0
0
0
0
0
0
0
0
0
0
0
0
0
0
0
0
0
0
0
0
0
0
0
0
0
0
0
0
0
0
0
0
0
0
0
0
0
0
0
0
0
0
0
0
0
0
0
0
0
0
0
0
0
0
0
0
0
0
0
0
0
0
0
0
0
0
0
0
0
0
0
0
0
0
0
0
0
0
0
0
0
0
0
0
0
0
0
0
0
0
0
0
0
0
0
0
0
0
0
0
0
0
0
0
0
0
0
0
0
0
0
0
0
0
0
0
0
0
0
0
0
0
0
0
0
0
0
0
0
0
0
0
0
0
0
0
0
0
0
0
0
0
0
0
0
0
0
0
0
0
0
0
0
0
0
0
0
0
0
0
0
0
0
0
0
0
0
0
0
0
0
0
0
0
0
0
0
0
0
0
0
0
0
0
0
0
0
0
0
0
0
0
0
0
0
0
0
0
0
0
0
0
0
0
0
0
0
0
0
0
0
0
0
0
0
0
0
0
0
0
0
0
0
0
0
0
0
0
0
0
0
0
0
0
0
0
0
0
0
0
0
0
0
0
0
0
0
0
0
0
0
0
0
0
0
0
0
0
0
0
0
0
0
0
0
0
0
0
0
0
0
0
0
0
0
0
0
0
0
0
0
0
0
0
0
0
0
0
0
0
0
0
0
0
0
0
0
0
0
0
0
0
0
0
0
0
0
0
0
0
0
0
0
0
0
0
0
0
0
0
0
0
0
0
0
0
0
0
0
0
0
0
0
0
0
0
0
0
0
0
0
0
0
0
0
0
0
0
0
0
0
0
0
0
0
0
0
0
0
0
0
0
0
0
0
0
0
0
0
0
0
0
0
0
0
0
0
0
0
0
0
0
0
0
0
0
0
0
0
0
0
0
0
0
0
0
0
0
0
0
0
0
0
0
0
0
0
0
0
0
0
0
0
0
0
0
0
0
0
0
0
0
0
0
0
0
0
0
0
0
0
0
0
0
0
0
0
0
0
0
0
0
0
0
0
0
0
0
0
0
0
0
0
0
0
0
0
0
0
0
0
0
0
0
0
0
0
0
0
0
0
0
0
0
0
0
0
0
0
0
0
0
0
0
0
0
0
0
0
0
0
0
0
0
0
0
0
0
0
0
0
0
0
0
0
0
0
0
0
0
0
0
0
0
0
0
0
0
0
0
0
0
0
0
0
0
0
0
0
0
0
0
0
0
0
0
0
0
0
0
0
0
0
0
0
0
0
0
0
0
0
0
0
0
0
0
0
0
0
0
0
0
0
0
0
0
0
0
0
0
0
0
0
0
0
0
0
0
0
0
0
0
0
0
0
0
0
0
0
0
0
0
0
0
0
0
0
0
0
0
0
0
0
0
0
0
0
0
0
0
0
0
0
0
0
0
0
0
0
0
0
0
0
0
0
0
0
0
0
0
0
0
0
0
0
0
0
0
0
0
0
0
0
0
0
0
0
0
0
0
0
0
0
0
0
0
0
0
0
0
0
0
0
0
0
0
0
0
0
0
0
0
0
0
0
0
0
0
0
0
0
0
0
0
0
0
0
0
0
0
0
0
0
0
0
0
0
0
0
0
0
0
0
0
0
0
0
0
0
0
0
0
0
0
0
0
0
0
0
0
0
0
0
0
0
0
0
0
0
0
0
0
0
0
0
0
0
0
0
0
0
0
0
0
0
0
0
0
0
0
0
0
0
0
0
0
0
0
0
0
0
0
0
0
0
0
0
0
0
0
0
0
0
0
0
0
0
0
0
0
0
0
0
0
0
0
0
0
0
0
0
0
0
0
0
0
0
0
0
0
0
0
0
0
0
0
0
0
0
0
0
0
0
0
0
0
0
0
0
0
0
0
0
0
0
0
0
0
0
0
0
0
0
0
0
0
0
0
0
0
0
0
0
0
0
0
0
0
0
0
0
0
0
0
0
0
0
0
0
0
0
0
0
0
0
0
0
0
0
0
0
0
0
0
0
0
0
0
0
0
0
0
0
0
0
0
0
0
0
0
0
0
0
0
0
0
0
0
0
0
0
0
0
0
0
0
0
0
0
0
0
0
0
0
0
0
0
0
0
0
0
0
0
0
0
0
0
0
0
0
0
0
0
0
0
0
0
0
0
0
0
0
0
0
0
0
0
0
0
0
0
0
0
0
0
0
0
0
0
0
0
0
0
0
0
0
0
0
0
0
0
0
0
0
0
0
0
0
0
0
0
0
0
0
0
0
0
0
0
0
0
0
0
0
0
0
0
0
0
0
0
0
0
0
0
0
0
0
0
0
0
0
0
0
0
0
0
0
0
0
0
0
0
0
0
0
0
0
0
0
0
0
0
0
0
0
0
0
0
0
0
0
0
0
0
0
0
0
0
0
0
0
0
0
0
0
0
0
0
0
0
0
0
0
0
0
0
0
0
0
0
0
0
0
0
0
0
0
0
0
0
0
0
0
0
0
0
0
0
0
0
0
0
0
0
0
0
0
0
0
0
0
0
0
0
0
0
0
0
0
0
0
0
0
0
0
0
0
0
0
0
0
0
0
0
0
0
0
0
0
0
0
0
0
0
0
0
0
0
0
0
0
0
0
0
0
0
0
0
0
0
0
0
0
0
0
0
0
0
0
0
0
0
0
0
0
0
0
0
0
0
0
0
0
0
0
0
0
0
0
0
0
0
0
0
0
0
0
0
0
0
0
0
0
0
0
0
0
0
0
0
0
0
0
0
0
0
0
0
0
0
0
0
0
0
0
0
0
0
0
0
0
0
0
0
0
0
0
0
0
0
0
0
0
0
0
0
0
0
0
0
0
0
0
0
0
0
0
0
0
0
0
0
0
0
0
0
0
0
0
0
0
0
0
0
0
0
0
0
0
0
0
0
0
0
0
0
0
0
0
0
0
0
0
0
0
0
0
0
0
0
0
0
0
0
0
0
0
0
0
0
0
0
0
0
0
0
0
0
0
0
0
0
0
0
0
0
0
0
0
0
0
0
0
0
0
0
0
0
0
0
0
0
0
0
0
0
0
0
0
0
0
0
0
0
0
0
0
0
0
0
0
0
0
0
0
0
0
0
0
0
0
0
0
0
0
0
0
0
0
0
0
0
0
0
0
0
0
0
0
0
0
0
0
0
0
0
0
0
0
0
0
0
0
0
0
0
0
0
0
0
0
0
0
0
0
0
0
0
0
0
0
0
0
0
0
0
0
0
0
0
0
0
0
0
0
0
0
0
0
0
0
0
0
0
0
0
0
0
0
0
0
0
0
0
0
0
0
0
0
0
0
0
0
0
0
0
0
0
0
0
0
0
0
0
0
0
0
0
0
0
0
0
0
0
0
0
0
0
0
0
0
0
0
0
0
0
0
0
0
0
0
0
0
0
0
0
0
0
0
0
0
0
0
0
0
0
0
0
0
0
0
0
0
0
0
0
0
0
0
0
0
0
0
0
0
0
0
0
0
0
0
0
0
0
0
0
0
0
0
0
0
0
0
0
0
0
0
0
0
0
0
0
0
0
0
0
0
0
0
0
0
0
0
0
0
0
0
0
0
0
0
0
0
0
0
0
0
0
0
0
0
0
0
0
0
0
0
0
0
0
0
0
0
0
0
0
0
0
0
0
0
0
0
0
0
0
0
0
0
0
0
0
0
0
0
0
0
0
0
0
0
0
0
0
0
0
0
0
0
0
0
0
0
0
0
0
0
0
0
0
0
0
0
0
0
0
0
0
0
0
0
0
0
0
0
0
0
0
0
0
0
0
0
0
0
0
0
0
0
0
0
0
0
0
0
0
0
0
0
0
0
0
0
0
0
0
0
0
0
0
0
0
0
0
0
0
0
0
0
0
0
0
0
0
0
0
0
0
0
0
0
0
0
0
0
0
0
0
0
0
0
0
0
0
0
0
0
0
0
0
0
0
0
0
0
0
0
0
0
0
0
0
0
0
0
0
0
0
0
0
0
0
0
0
0
0
0
0
0
0
0
0
0
0
0
0
0
0
0
0
0
0
0
0
0
0
0
0
0
0
0
0
0
0
0
0
0
0
0
0
0
0
0
0
0
0
0
0
0
0
0
0
0
0
0
0
0
0
0
0
0
0
0
0
0
0
0
0
0
0
0
0
0
0
0
0
0
0
0
0
0
0
0
0
0
0
0
0
0
0
0
0
0
0
0
0
0
0
0
0
0
0
0
0
0
0
0
0
0
0
0
0
0
0
0
0
0
0
0
0
0
0
0
0
0
0
0
0
0
0
0
0
0
0
0
0
0
0
0
0
0
0
0
0
0
0
0
0
0
0
0
0
0
0
0
0
0
0
0
0
0
0
0
0
0
0
0
0
0
0
0
0
0
0
0
0
0
0
0
0
0
0
0
0
0
0
0
0
0
0
0
0
0
0
0
0
0
0
0
0
0
0
0
0
0
0
0
0
0
0
0
0
0
0
0
0
0
0
0
0
0
0
0
0
0
0
0
0
0
0
0
0
0
0
0
0
0
0
0
0
0
0
0
0
0
0
0
0
0
0
0
0
0
0
0
0
0
0
0
0
0
0
0
0
0
0
0
0
0
0
0
0
0
0
0
0
0
0
0
0
0
0
0
0
0
0
0
0
0
0
0
0
0
0
0
0
0
0
0
0
0
0
0
0
0
0
0
0
0
0
0
0
0
0
0
0
0
0
0
0
0
0
0
0
0
0
0
0
0
0
0
0
0
0
0
0
0
0
0
0
0
0
0
0
0
0
0
0
0
0
0
0
0
0
0
0
0
0
0
0
0
0
0
0
0
0
0
0
0
0
0
0
0
0
0
0
0
0
0
0
0
0
0
0
0
0
0
0
0
0
0
0
0
0
0
0
0
0
0
0
0
0
0
0
0
0
0
0
0
0
0
0
0
0
0
0
0
0
0
0
0
0
0
0
0
0
0
0
0
0
0
0
0
0
0
0
0
0
0
0
0
0
0
0
0
0
0
0
0
0
0
0
0
0
0
0
0
0
0
0
0
0
0
0
0
0
0
0
0
0
0
0
0
0
0
0
0
0
0
0
0
0
0
0
0
0
0
0
0
0
0
0
0
0
0
0
0
0
0
0
0
0
0
0
0
0
0
0
0
0
0
0
0
0
0
0
0
0
0
0
0
0
0
0
0
0
0
0
0
0
0
0
0
0
0
0
0
0
0
0
0
0
0
0
0
0
0
0
0
0
0
0
0
0
0
0
0
0
0
0
0
0
0
0
0
0
0
0
0
0
0
0
0
0
0
0
0
0
0
0
0
0
0
0
0
0
0
0
0
0
0
0
0
0
0
0
0
0
0
0
0
0
0
0
0
0
0
0
0
0
0
0
0
0
0
0
0
0
0
0
0
0
0
0
0
0
0
0
0
0
0
0
0
0
0
0
0
0
0
0
0
0
0
0
0
0
0
0
0
0
0
0
0
0
0
0
0
0
0
0
0
0
0
0
0
0
0
0
0
0
0
0
0
0
0
0
0
0
0
0
0
0
0
0
0
0
0
0
0
0
0
0
0
0
0
0
0
0
0
0
0
0
0
0
0
0
0
0
0
0
0
0
0
0
0
0
0
0
0
0
0
0
0
0
0
0
0
0
0
0
0
0
0
0
0
0
0
0
0
0
0
0
0
0
0
0
0
0
0
0
0
0
0
0
0
0
0
0
0
0
0
0
0
0
0
0
0
0
0
0
0
0
0
0
0
0
0
0
0
0
0
0
0
0
0
0
0
0
0
0
0
0
0
0
0
0
0
0
0
0
0
0
0
0
0
0
0
0
0
0
0
0
0
0
0
0
0
0
0
0
0
0
0
0
0
0
0
0
0
0
0
0
0
0
0
0
0
0
0
0
0
0
0
0
0
0
0
0
0
0
0
0
0
